DATA LOGGER INTERVAL @ 100ms
TIME(s),y(t)_Output,r(t)_SetPoint,Motor Velocity,u(t)_Input
7.30,-6.166,0.300,0.384,0.300
7.40,-5.782,0.300,0.354,0.300
7.50,-5.546,0.300,0.374,0.300
7.60,-5.271,0.300,0.413,0.300
7.70,-4.907,0.300,0.393,0.300
7.80,-4.671,0.300,0.374,0.300
7.90,-4.347,0.300,0.374,0.300
8.00,-4.061,0.300,0.403,0.300
8.10,-3.776,0.300,0.393,0.300
8.20,-3.481,0.300,0.374,0.300
8.30,-3.176,0.300,0.393,0.300
8.40,-2.871,0.300,0.403,0.300
8.50,-2.547,0.300,0.374,0.300
8.60,-2.242,0.300,0.354,0.300
8.70,-1.967,0.300,0.393,0.300
8.80,-1.623,0.300,0.393,0.300
8.90,-1.367,0.300,0.374,0.300
9.00,-1.003,0.300,0.354,0.300
9.10,-0.816,0.300,0.374,0.300
9.20,-0.354,0.300,0.393,0.300
9.30,-0.138,0.300,0.364,0.300
9.40,0.226,0.300,0.344,0.300
9.50,0.482,0.300,0.384,0.300
9.60,0.747,0.300,0.384,0.300
9.70,1.062,0.300,0.354,0.300
9.80,1.347,0.300,0.344,0.300
9.90,1.613,0.300,0.364,0.300
10.00,1.967,0.300,0.403,0.300
10.10,2.331,0.300,0.374,0.300
10.20,2.557,0.300,0.364,0.300
10.30,2.812,0.300,0.384,0.300
10.40,3.147,0.300,0.403,0.300
10.50,3.422,0.300,0.374,0.300
10.60,3.737,0.300,0.354,0.300
10.70,4.052,0.300,0.374,0.300
10.80,4.445,0.300,0.423,0.300
10.90,4.740,0.300,0.354,0.300
11.00,5.025,0.300,0.354,0.300
11.10,5.261,0.300,0.403,0.300
11.20,5.635,0.300,0.403,0.300
11.30,5.959,0.300,0.374,0.300
11.40,6.244,0.300,0.354,0.300
11.50,6.500,0.300,0.403,0.300
11.60,6.844,0.300,0.423,0.300
11.70,7.159,0.300,0.374,0.300
11.80,7.454,0.300,0.364,0.300
11.90,7.720,0.300,0.413,0.300
12.00,8.044,0.300,0.423,0.300
12.10,8.329,0.300,0.384,0.300
12.20,8.713,0.300,0.354,0.300
12.30,9.086,0.300,0.423,0.300
12.40,9.381,0.300,0.403,0.300
12.50,9.637,0.300,0.384,0.300
12.60,9.903,0.300,0.384,0.300
12.70,10.099,0.300,0.413,0.300
12.80,10.099,0.300,0.393,0.300
12.90,10.099,0.300,0.364,0.300
13.00,10.099,0.300,0.403,0.300
13.10,10.099,0.300,0.423,0.300
13.20,10.099,0.300,0.374,0.300
13.30,10.099,0.300,0.384,0.300
13.40,10.099,0.300,0.413,0.300
13.50,10.099,0.300,0.403,0.300
13.60,10.099,0.300,0.374,0.300
13.70,10.099,0.300,0.374,0.300
13.80,10.099,0.300,0.423,0.300
13.90,10.099,0.300,0.374,0.300
14.00,10.099,0.300,0.374,0.300
14.10,10.099,0.300,0.393,0.300
14.20,10.099,0.300,0.413,0.300
14.30,10.099,0.300,0.374,0.300
14.40,10.099,0.300,0.364,0.300
14.50,10.099,0.300,0.393,0.300
14.60,10.099,0.300,0.413,0.300
14.70,1.564,0.300,0.354,0.300
14.80,1.652,0.300,0.334,0.300
14.90,1.652,0.300,0.384,0.300
15.00,1.682,0.300,0.393,0.300
15.10,1.623,0.300,0.364,0.300
15.20,1.691,0.300,0.344,0.300
15.30,1.711,0.300,0.393,0.300
15.40,1.652,0.300,0.393,0.300
15.50,1.180,0.300,0.374,0.300
15.60,1.534,0.300,0.374,0.300
15.70,27.200,0.300,0.393,0.300
15.80,1.652,0.300,0.393,0.300
15.90,27.200,0.300,0.344,0.300
16.00,27.200,0.300,0.354,0.300
16.10,27.210,0.300,0.384,0.300
16.20,27.250,0.300,0.384,0.300
16.30,27.289,0.300,0.344,0.300
16.40,27.299,0.300,0.344,0.300
16.50,27.368,0.300,0.384,0.300
16.60,27.417,0.300,0.384,0.300
16.70,27.486,0.300,0.344,0.300
16.80,27.604,0.300,0.334,0.300
16.90,27.771,0.300,0.384,0.300
17.00,27.977,0.300,0.413,0.300
17.10,28.331,0.300,0.374,0.300
17.20,28.656,0.300,0.374,0.300
17.30,28.872,0.300,0.413,0.300
17.40,29.256,0.300,0.423,0.300
17.50,29.561,0.800,0.354,0.800
17.60,-9.932,0.800,1.406,0.800
17.70,-8.624,0.800,1.760,0.800
17.80,-7.179,0.800,1.849,0.800
17.90,-5.635,0.800,1.859,0.800
18.00,-4.317,0.800,1.868,0.800
18.10,-2.753,0.800,1.927,0.800
18.20,-1.387,0.800,1.888,0.800
18.30,0.246,0.800,1.888,0.800
18.40,1.711,0.800,1.898,0.800
18.50,3.117,0.800,1.898,0.800
18.60,4.671,0.800,1.927,0.800
18.70,5.989,0.800,1.898,0.800
18.80,7.562,0.800,1.888,0.800
18.90,9.116,0.800,1.927,0.800
19.00,10.099,0.800,1.918,0.800
19.10,10.099,0.800,1.898,0.800
19.20,10.099,0.800,1.878,0.800
19.30,10.099,0.800,1.937,0.800
19.40,10.099,0.800,1.908,0.800
19.50,1.672,0.800,1.878,0.800
19.60,27.200,0.800,1.878,0.800
19.70,27.220,0.800,1.878,0.800
19.80,27.456,0.800,1.878,0.800
19.90,28.459,0.800,1.888,0.800
20.00,29.777,0.800,1.859,0.800
20.10,-8.900,0.800,1.878,0.800
20.20,-7.297,0.800,1.918,0.800
20.30,-5.684,0.800,1.888,0.800
20.40,-4.229,0.800,1.888,0.800
20.50,-2.881,0.800,1.888,0.800
20.60,-1.328,0.800,1.927,0.800
20.70,0.098,0.800,1.888,0.800
20.80,1.573,0.800,1.878,0.800
20.90,3.107,0.800,1.898,0.800
21.00,4.514,0.800,1.927,0.800
21.10,6.097,0.800,1.888,0.800
21.20,7.661,0.800,1.888,0.800
21.30,9.047,0.800,1.898,0.800
21.40,10.099,0.800,1.888,0.800
21.50,10.099,0.800,1.888,0.800
21.60,10.099,0.800,1.878,0.800
21.70,10.099,0.800,1.888,0.800
21.80,10.099,0.800,1.878,0.800
21.90,1.564,0.800,1.888,0.800
22.00,27.200,0.800,1.868,0.800
22.10,27.220,0.800,1.888,0.800
22.20,27.456,0.800,1.878,0.800
22.30,28.321,0.800,1.898,0.800
22.40,29.777,0.800,1.868,0.800
22.50,-9.116,0.800,1.868,0.800
22.60,-7.503,0.800,1.927,0.800
22.70,-5.989,0.800,1.898,0.800
22.80,-4.671,0.800,1.878,0.800
22.90,-3.166,0.800,1.878,0.800
23.00,-1.819,0.800,1.878,0.800
23.10,-0.138,0.800,1.878,0.800
23.20,1.101,0.800,1.918,0.800
23.30,2.714,0.800,1.868,0.800
23.40,4.278,0.800,1.888,0.800
23.50,5.782,0.800,1.878,0.800
23.60,7.316,0.800,1.888,0.800
23.70,8.831,0.800,1.888,0.800
23.80,10.099,0.800,1.927,0.800
23.90,10.099,0.800,1.888,0.800
24.00,10.099,0.800,1.878,0.800
24.10,10.099,0.800,1.859,0.800
24.20,10.099,0.800,1.888,0.800
24.30,1.672,0.800,1.908,0.800
24.40,1.495,0.800,1.888,0.800
24.50,27.200,0.800,1.888,0.800
24.60,27.368,0.800,1.868,0.800
24.70,27.967,0.800,1.908,0.800
24.80,29.561,0.800,1.888,0.800
24.90,-9.165,0.800,1.859,0.800
25.00,-7.759,0.800,1.888,0.800
25.10,-6.294,0.800,1.918,0.800
25.20,-4.799,0.800,1.888,0.800
25.30,-3.235,0.800,1.878,0.800
25.40,-1.809,0.800,1.888,0.800
25.50,-0.256,0.800,1.918,0.800
25.60,1.062,0.800,1.888,0.800
25.70,2.626,0.800,1.878,0.800
25.80,4.130,0.800,1.888,0.800
25.90,5.704,0.800,1.908,0.800
26.00,7.198,0.800,1.878,0.800
26.10,8.811,0.800,1.868,0.800
26.20,10.099,0.800,1.927,0.800
26.30,10.099,0.800,1.908,0.800
26.40,10.099,0.800,1.878,0.800
26.50,10.099,0.800,1.878,0.800
26.60,10.099,0.800,1.918,0.800
26.70,1.210,0.800,1.888,0.800
26.80,1.269,0.800,1.878,0.800
26.90,27.210,0.800,1.868,0.800
27.00,27.377,0.800,1.878,0.800
27.10,27.948,0.800,1.908,0.800
27.20,29.403,0.800,1.908,0.800
27.30,-9.175,0.800,1.868,0.800
27.40,-7.464,0.800,1.918,0.800
27.50,-5.940,0.800,1.888,0.800
27.60,-4.386,0.800,1.868,0.800
27.70,-2.911,0.800,1.888,0.800
27.80,-1.337,0.800,1.898,0.800
27.90,0.059,0.800,1.878,0.800
28.00,1.436,0.800,1.868,0.800
28.10,2.891,0.800,1.859,0.800
28.20,4.494,0.800,1.908,0.800
28.30,6.117,0.800,1.868,0.800
28.40,7.552,0.800,1.868,0.800
28.50,9.086,0.800,1.868,0.800
28.60,10.099,0.800,1.878,0.800
28.70,10.099,0.800,1.868,0.800
28.80,10.099,0.800,1.878,0.800
28.90,10.099,0.800,1.908,0.800
29.00,1.367,0.800,1.868,0.800
29.10,1.446,0.800,1.849,0.800
29.20,27.200,0.800,1.868,0.800
29.30,27.250,0.800,1.908,0.800
29.40,27.456,0.800,1.849,0.800
29.50,28.636,0.800,1.849,0.800
29.60,29.974,0.800,1.859,0.800
29.70,-8.929,0.800,1.868,0.800
29.80,-7.366,0.800,1.859,0.800
29.90,-5.723,0.800,1.868,0.800
30.00,-4.288,0.800,1.859,0.800
30.10,-2.744,0.800,1.898,0.800
30.20,-1.200,0.800,1.878,0.800
30.30,0.098,0.800,1.868,0.800
30.40,1.573,0.800,1.849,0.800
30.50,3.029,0.800,1.859,0.800
30.60,4.524,0.800,1.898,0.800
30.70,5.822,0.800,1.878,0.800
30.80,7.395,0.800,1.868,0.800
30.90,8.811,0.800,1.868,0.800
31.00,10.099,0.800,1.898,0.800
31.10,10.099,0.800,1.878,0.800
31.20,10.099,0.800,1.878,0.800
31.30,10.099,0.800,1.859,0.800
31.40,10.099,0.800,1.868,0.800
31.50,1.623,0.800,1.888,0.800
31.60,1.455,0.800,1.888,0.800
31.70,27.210,0.800,1.849,0.800
31.80,27.338,0.800,1.829,0.800
31.90,27.849,0.800,1.849,0.800
32.00,29.393,0.800,1.888,0.800
32.10,-9.598,0.800,1.849,0.800
32.20,-8.044,0.800,1.849,0.800
32.30,-6.490,0.800,1.859,0.800
32.40,-4.907,0.800,1.859,0.800
32.50,-3.442,0.800,1.849,0.800
32.60,-1.898,0.800,1.849,0.800
32.70,-0.580,0.800,1.849,0.800
32.80,0.944,0.800,1.878,0.800
32.90,2.458,0.800,1.849,0.800
33.00,3.796,0.800,1.849,0.800
33.10,5.350,0.800,1.859,0.800
33.20,6.854,0.800,1.878,0.800
33.30,8.388,0.800,1.849,0.800
33.40,9.706,0.800,1.859,0.800
33.50,10.099,0.800,1.849,0.800
33.60,10.099,0.800,1.898,0.800
33.70,10.099,0.800,1.859,0.800
33.80,10.099,0.800,1.859,0.800
33.90,1.396,0.800,1.849,0.800
34.00,1.377,0.800,1.898,0.800
34.10,27.210,0.800,1.878,0.800
34.20,27.299,0.800,1.829,0.800
34.30,27.781,0.800,1.829,0.800
34.40,29.069,0.800,1.878,0.800
34.50,-9.647,0.800,1.878,0.800
34.60,-8.172,0.800,1.849,0.800
34.70,-6.608,0.800,1.839,0.800
34.80,-5.094,0.800,1.888,0.800
